t[s],z[m],v[m/s],a[m/s^2],Fz[N],P_joule[W]
0.0,1.487,0.0,-9.81,0.0,0.0
0.010000000000000002,1.4864606395084767,-0.09804047675763579,-9.795415553062112,0.0002916889387577609,3.847516229644189e-05
0.02000000000000001,1.4849420268383473,-0.1958581025435981,-9.770056664054403,0.0007988667189119452,0.0001862780935018294
0.03000000000000002,1.4824467112948196,-0.2934022382628874,-9.740937652451139,0.001381246950977218,0.0004670156758365565
0.04000000000000003,1.478977671263601,-0.3906252385939284,-9.705964230458644,0.002080715390827144,0.0009223128830584315
0.05000000000000004,1.4745385002026412,-0.48745361604081017,-9.662468074729055,0.0029506385054188875,0.0016091898349613347
0.060000000000000046,1.4691336561084405,-0.5837921788049493,-9.608947249718994,0.00402105500562011,0.002581568850208819
0.07000000000000005,1.4627685761405718,-0.6795451364135499,-9.546712556774809,0.005265748864503851,0.0038597754826221976
0.08000000000000006,1.455449514997176,-0.7746462930827096,-9.479814860599005,0.006603702788019907,0.005425800356836015
0.09000000000000007,1.4471831561853283,-0.8690708325536596,-9.411841930537758,0.00796316138924485,0.007268317506571668
0.10000000000000007,1.4379763000601453,-0.9628129850408369,-9.34327797848878,0.009334440430224404,0.009380230738914985
0.11000000000000008,1.4278358185138214,-1.055863096930847,-9.273515526166321,0.010729689476673594,0.011726011186759623
0.12000000000000009,1.416768697008231,-1.1482098777354535,-9.202872452682024,0.012142550946359534,0.014327126214040493
0.1300000000000001,1.4047819729803175,-1.2398570623611607,-9.134155830842323,0.013516883383153551,0.017081238003333984
0.1400000000000001,1.3918824452070258,-1.3308455015122014,-9.070740912466029,0.014785181750679447,0.019939983007785135
0.1500000000000001,1.3780764107663945,-1.4212272305434486,-9.012326483608103,0.015953470327837962,0.022901010034418422
0.16000000000000011,1.363369660434092,-1.5110517557029624,-8.958401691253057,0.01703196617493889,0.025965807021362093
0.17000000000000012,1.347767583917571,-1.6003485299980797,-8.906570764011546,0.018068584719769097,0.02914920174833165
0.18000000000000013,1.3312753467915484,-1.6891366845582627,-8.85604044439888,0.019079191112022397,0.03253070861510935
0.19000000000000014,1.3138980001045697,-1.7774221609473977,-8.806240632430235,0.020075187351395306,0.03598794490474631
0.20000000000000015,1.2956405345727593,-1.8652097881864345,-8.756377800286614,0.021072443994267706,0.039655562539174266
0.21000000000000016,1.2765079170189793,-1.9525028156490805,-8.706971096939847,0.02206057806120305,0.043498237894636374
0.22000000000000017,1.2565050868178296,-2.0393026959209335,-8.657997119263761,0.023040057614724763,0.04741932209371196
0.23000000000000018,1.2356369541634127,-2.1256123462535403,-8.609125011398016,0.024017499772039687,0.05148381360671139
0.24000000000000019,1.2139084009523509,-2.2114354593134884,-8.56045611202694,0.024990877759461235,0.05574256673294501
0.25000000000000017,1.1913242773716777,-2.2967753939109707,-8.512197866362031,0.025956042672759385,0.06016144681264244
0.2600000000000002,1.1678893989786112,-2.3816353866160407,-8.464385129422453,0.02691229741155096,0.06470010048736373
0.2700000000000002,1.1436085459784937,-2.46601884847319,-8.416960316022598,0.02786079367954806,0.06935037179194097
0.2800000000000002,1.118486463203711,-2.549929338842061,-8.369879089493008,0.02880241821013986,0.07412096289355406
0.2900000000000002,1.09252786006101,-2.633370454148682,-8.323128556453183,0.029737428870936368,0.0790199053516564
0.3000000000000002,1.0657374104807604,-2.716345769701843,-8.276708935013572,0.03066582129972858,0.0840500789097137
0.3100000000000002,1.0381197529175568,-2.798858832448275,-8.230619803570837,0.03158760392858325,0.08921009043062937
0.32000000000000023,1.0096794904249882,-2.880913158525129,-8.184859896725271,0.03250280206549458,0.09449305017202113
0.33000000000000024,0.980421190771517,-2.962512248122947,-8.139440536190731,0.033411189276185374,0.09988200138849772
0.34000000000000025,0.950349386534956,-3.0436596209649402,-8.094402507028454,0.03431194985943093,0.1053507010904702
0.35000000000000026,0.9194685751544874,-3.1243588659104637,-8.049803189815155,0.035203936203696926,0.11088909618001272
0.36000000000000026,0.8877832188978199,-3.2046136105758354,-8.005626684702783,0.03608746630594434,0.11654992652426072
0.3700000000000003,0.8552977450801299,-3.284427289713177,-7.961705671302672,0.03696588657394656,0.12242168220472815
0.3800000000000003,0.8220165467429638,-3.3638030378853987,-7.917933362227753,0.037841332755444955,0.12844434176512728
0.3900000000000003,0.7879439827417659,-3.4427442660505236,-7.874595292599618,0.03870809414800766,0.13439839880050905
0.4000000000000003,0.7530843766712119,-3.521254957342591,-7.831860565294261,0.039562788694114795,0.1404047395559843
0.4100000000000003,0.7174420175611167,-3.599338338345291,-7.789208128400258,0.04041583743199486,0.1467645940289011
0.4200000000000003,0.6810211618644662,-3.676997243788361,-7.746825236373328,0.041263495272533444,0.15303003905542523
0.4300000000000003,0.6438260309698476,-3.7542359078808087,-7.705135934737126,0.042097281305257486,0.15931663475523367
0.44000000000000034,0.6058608122357282,-3.831057152135074,-7.663351917105668,0.04293296165788665,0.1659844736747533
0.45000000000000034,0.5671296610374942,-3.9074643565797604,-7.622260244756774,0.04375479510486453,0.17233212829531702
0.46000000000000035,0.5276366971572238,-3.9834612274277217,-7.581243394655939,0.044575132106881236,0.17919748304574398
0.47000000000000036,0.48738600952927663,-4.059050486780563,-7.5407573296081924,0.04538485340783617,0.1857024357609064
0.48000000000000037,0.4463816518175781,-4.134236044280039,-7.500385584326734,0.046192288313465335,0.19274459198770535
0.4900000000000004,0.404627647081883,-4.209020679807675,-7.46062954218891,0.04698740915622183,0.1993828835843273
0.5000000000000003,0.3621279837839731,-4.283407839561358,-7.420811279757767,0.04778377440484467,0.2065486112689257
0.5100000000000003,0.31888661956918246,-4.357400979985533,-7.381729885591808,0.048565402288163854,0.21349188942798905
0.5200000000000004,0.2749074791522706,-4.43100269903868,-7.3426999077332376,0.04934600184533526,0.2204807155664258
0.5300000000000004,0.23019445498317376,-4.504216843991516,-7.303936934218003,0.05012126131563995,0.22788842966659215
0.5400000000000004,0.1847514087790743,-4.577046338094577,-7.265782560176917,0.05088434879646167,0.23501004194356134
0.5500000000000004,0.13858217342475287,-4.649492800111135,-7.227345442884885,0.051653091142302314,0.2421985750104047
0.5600000000000004,0.09169076868044533,-4.721486545562799,-7.165002930833226,0.052899941383335494,0.2522485742685914
0.5700000000000004,0.044088489958531166,-4.791116312295813,-6.665655695157087,0.06288688609685827,0.25338283803965617
0.5800000000000004,-0.004196474659191981,-4.8621339271845665,-8.379849311406593,0.028603013771868135,0.12739525871556062
0.5900000000000004,-0.05333430270644238,-4.957779284017739,-9.874081788972301,-0.0012816357794459953,0.020979463521741244
0.6000000000000004,-0.10345371382027752,-5.056168618719194,-9.818003387101303,-0.00016006774202605517,0.0002484373013350163
